2500	-0.000799657
2499	-0.00061446
2498	-0.000504845
2497	-0.000565861
2496	-0.000583285
2495	-0.000409013
2494	-0.000367891
2493	-0.000335922
2492	-0.000258317
2491	-0.000250245
2490	-0.000187633
2489	-0.000436891
2488	-0.000542438
2487	-0.000388323
2486	-0.000572117
2485	-0.000672773
2484	-0.000858668
2483	-0.000865334
2482	-0.001037512
2481	-0.001098659
2480	-0.001266306
2479	-0.001225575
2478	-0.001209106
2477	-0.001148542
2476	-0.001324118
2475	-0.001346621
2474	-0.001231408
2473	-0.001350492
2472	-0.001395082
2471	-0.0012248
2470	-0.001121639
2469	-0.000990303
2468	-0.000956571
2467	-0.000880576
2466	-0.000668224
2465	-0.00045732
2464	-0.000442476
2463	-0.000349837
2462	-0.000261784
2461	-0.000230893
2460	-0.000292982
2459	-0.000173194
2458	-0.000166932
2457	-0.000299501
2456	-0.000389926
2455	-0.000288222
2454	-0.000573565
2453	-0.000733144
2452	-0.000726787
2451	-0.000730612
2450	-0.001048151
2449	-0.00123399
2448	-0.00105657
2447	-0.001131915
2446	-0.001381819
2445	-0.001337021
2444	-0.001216075
2443	-0.001349305
2442	-0.001439202
2441	-0.001165323
2440	-0.00114565
2439	-0.001293303
2438	-0.001065246
2437	-0.000825598
2436	-0.000792216
2435	-0.000738106
2434	-0.000650131
2433	-0.000420599
2432	-0.000420495
2431	-0.000585663
2430	-0.00042484
2429	-0.000264215
2428	-0.000344975
2427	-0.000365615
2426	-0.000231618
2425	-0.000261939
2424	-0.000466732
2423	-0.000416771
2422	-0.000500036
2421	-0.000541662
2420	-0.000820431
2419	-0.000834228
2418	-0.000850143
2417	-0.000871689
2416	-0.001101241
2415	-0.001161141
2414	-0.001283134
2413	-0.001404112
2412	-0.001292219
2411	-0.001310594
2410	-0.001350285
2409	-0.001270177
2408	-0.001245295
2407	-0.001259027
2406	-0.001177818
2405	-0.00103715
2404	-0.000929863
2403	-0.000906305
2402	-0.00074069
2401	-0.000661659
2400	-0.000583957
2399	-0.000504742
2398	-0.000510172
2397	-0.000465543
2396	-0.000465284
2395	-0.000297897
2394	-0.000386306
2393	-0.000383875
2392	-0.000490521
2391	-0.000502208
2390	-0.000470145
2389	-0.000628781
2388	-0.000786738
2387	-0.000847094
2386	-0.000756712
2385	-0.001233318
2384	-0.001227743
2383	-0.001021552
2382	-0.001275339
2381	-0.001388682
2380	-0.001187215
2379	-0.001318492
2378	-0.00144235
2377	-0.001335937
2376	-0.001292374
2375	-0.001220515
2374	-0.00127441
2373	-0.001095871
2372	-0.001030281
2371	-0.000886466
2370	-0.000888842
2369	-0.000763379
2368	-0.000585301
2367	-0.000611462
2366	-0.000646357
2365	-0.000417081
2364	-0.000261577
2363	-0.000696033
2362	-0.00048809
2361	-0.000462853
2360	-0.000497502
2359	-0.000637104
2358	-0.000558002
2357	-0.000764206
2356	-0.000879284
2355	-0.001076918
2354	-0.001053109
2353	-0.001047841
2352	-0.001164703
2351	-0.001209673
2350	-0.001182465
2349	-0.00138378
2348	-0.001559467
2347	-0.001343473
2346	-0.001434403
2345	-0.001398178
2344	-0.001231357
2343	-0.001163309
2342	-0.001182929
2341	-0.001129798
2340	-0.000943605
2339	-0.000902792
2338	-0.000846422
2337	-0.000880266
2336	-0.000820483
2335	-0.000634726
2334	-0.00052222
2333	-0.000488556
2332	-0.000374874
2331	-0.000247606
2330	-0.000480281
2329	-0.000597296
2328	-0.000545902
2327	-0.000765084
2326	-0.000749735
2325	-0.000690916
2324	-0.00097088
2323	-0.001028422
2322	-0.000992885
2321	-0.001226349
2320	-0.001530319
2319	-0.001277043
2318	-0.001225781
2317	-0.001412575
2316	-0.001396681
2315	-0.001332273
2314	-0.001271829
2313	-0.001388786
2312	-0.00123528
2311	-0.001068035
2310	-0.000938336
2309	-0.001077847
2308	-0.000993557
2307	-0.000827149
2306	-0.000660987
2305	-0.000772733
2304	-0.000556709
2303	-0.000463164
2302	-0.000463319
2301	-0.000466473
2300	-0.000425978
2299	-0.000366856
2298	-0.000616115
2297	-0.000635346
2296	-0.00056188
2295	-0.00082348
2294	-0.00098116
2293	-0.000979249
2292	-0.001041179
2291	-0.001323034
2290	-0.001346259
2289	-0.001306723
2288	-0.001566121
2287	-0.001641997
2286	-0.001508703
2285	-0.001479088
2284	-0.001646948
2283	-0.001598516
2282	-0.001464486
2281	-0.001400552
2280	-0.001378877
2279	-0.001391985
2278	-0.001041644
2277	-0.001024393
2276	-0.000951095
2275	-0.000846009
2274	-0.000683679
2273	-0.000730302
2272	-0.000727511
2271	-0.00062449
2270	-0.000624335
2269	-0.000668017
2268	-0.000807874
2267	-0.000936682
2266	-0.000925007
2265	-0.001090345
2264	-0.001135994
2263	-0.001325408
2262	-0.001472019
2261	-0.001608265
2260	-0.001721263
2259	-0.001800257
2258	-0.001777158
2257	-0.001756482
2256	-0.001725491
2255	-0.001747407
2254	-0.001718788
2253	-0.001587477
2252	-0.001558177
2251	-0.001453444
2250	-0.001389972
2249	-0.001273842
2248	-0.001108987
2247	-0.001002699
2246	-0.000862337
2245	-0.000762294
2244	-0.000789942
2243	-0.000748598
2242	-0.000652612
2241	-0.000685179
2240	-0.000630177
2239	-0.000615701
2238	-0.000582768
2237	-0.000648787
2236	-0.000707146
2235	-0.000522168
2234	-0.000725185
2233	-0.000936941
2232	-0.000898504
2231	-0.001016645
2230	-0.001338724
2229	-0.001372529
2228	-0.00130502
2227	-0.001367471
2226	-0.001553276
2225	-0.001522581
2224	-0.001446891
2223	-0.001431152
2222	-0.001402874
2221	-0.001264189
2220	-0.000994693
2219	-0.000928262
2218	-0.000984362
2217	-0.000916276
2216	-0.0006309
2215	-0.000740897
2214	-0.00062175
2213	-0.000404358
2212	0.001382542
2211	-0.000440873
2210	-0.00029231
2209	-0.000410047
2208	-0.000528115
2207	-0.000690658
2206	-0.000740122
2205	-0.000625265
2204	-0.000844252
2203	-0.001013598
2202	-0.001088641
2201	-0.001180141
2200	-0.001061838
2199	-0.001280501
2198	-0.001411337
2197	-0.001373923
2196	-0.001233473
2195	-0.001427024
2194	-0.001293716
2193	-0.001139867
2192	-0.001189177
2191	-0.001173997
2190	-0.000917826
2189	-0.000911575
2188	-0.000929192
2187	-0.000860683
2186	-0.000552314
2185	-0.000732007
2184	0.001095581
2183	-0.000540473
2182	-0.000873807
2181	-0.000617562
2180	-0.000697222
2179	-0.000556192
2178	-0.000339129
2177	-0.000561001
2176	-0.001117611
2175	-0.000937354
2174	-0.000924129
2173	-0.000866884
2172	-0.001181432
2171	-0.001235383
2170	-0.001320969
2169	-0.00143848
2168	-0.000950011
2167	-0.000938284
2166	-0.001355653
2165	-0.001405351
2164	-0.001209622
2163	-0.001059359
2162	-0.001051095
2161	-0.000985034
2160	-0.000750252
2159	-0.000696499
2158	-0.000470456
2157	-0.000684558
2156	-0.000516739
2155	-0.000350665
2154	-0.000334628
2153	-0.000507069
2152	-0.000374926
2151	-0.000497347
2150	-0.00071123
2149	-0.000719913
2148	-0.000645013
2147	-0.001013908
2146	-0.001176475
2145	-0.000857842
2144	-0.001108729
2143	-0.001190519
2142	-0.001537078
2141	-0.001448181
2140	-0.001402771
2139	-0.001522736
2138	-0.001367007
2137	-0.001358388
2136	-0.001319059
2135	-0.00085407
2134	-0.0012121
2133	-0.000869312
2132	-0.001083786
2131	-0.000993299
2130	-0.00095559
2129	-0.000920667
2128	-0.000497347
2127	-0.000555055
2126	-0.000686781
2125	-0.000767255
2124	-0.000913021
2123	-0.001236777
2122	-0.000888274
2121	-0.001036324
2120	-0.001022069
2119	-0.001020571
2118	-0.001098091
2117	-0.001233318
2116	-0.00127854
2115	-0.001338518
2114	-0.001440079
2113	-0.001646845
2112	-0.001491264
2111	-0.00149663
2110	-0.001528153
2109	-0.001460358
2108	-0.001265635
2107	-0.001267699
2106	-0.001193565
2105	-0.001155306
2104	-0.00107511
2103	-0.00101711
2102	-0.000888997
2101	-0.000829164
2100	-0.000839498
2099	-0.000731232
2098	-0.000734643
2097	-0.000809786
2096	-0.000717691
2095	-0.000491762
2094	-0.000890237
2093	-0.00111663
2092	-0.001268835
2091	-0.001134394
2090	-0.001263157
2089	-0.001512108
2088	-0.000861252
2087	-0.001519898
2086	-0.001268267
2085	-0.001818508
2084	-0.001721005
2083	-0.001360401
2082	-0.001437964
2081	-0.001776488
2080	-0.001480997
2079	-0.00115892
2078	-0.001271468
2077	-0.001367059
2076	-0.0010121
2075	-0.000936528
2074	-0.000919789
2073	-0.000822291
2072	-0.000656593
2071	-0.000824513
2070	-0.000991336
2069	-0.000778263
2068	-0.000907235
2067	-0.000976821
2066	-0.001313846
2065	-0.001392192
2064	-0.001308581
2063	-0.001343937
2062	-0.001610431
2061	-0.001744725
2060	-0.001919545
2059	-0.001481203
2058	-0.001667888
2057	-0.001610018
2056	-0.001582113
2055	-0.001696613
2054	-0.001619561
2053	-0.001355704
2052	-0.001557816
2051	-0.001328866
2050	-0.0010168
2049	-0.001359317
2048	-0.000566223
2047	-0.000808391
2046	-0.000807047
2045	-0.000997896
2044	-0.001221032
2043	-0.001039423
2042	-0.001238687
2041	-0.00114627
2040	-0.00130151
2039	-0.00065835
2038	-0.001482596
2037	-0.001848048
2036	-0.001732144
2035	-0.001784428
2034	-0.001616982
2033	-0.001725234
2032	-0.001736939
2031	-0.00175081
2030	-0.001647309
2029	-0.001670363
2028	-0.00158789
2027	-0.001500396
2026	-0.001415723
2025	-0.001159643
2024	-0.001432081
2023	-0.001286179
2022	-0.001136975
2021	-0.001186647
2020	-0.001258459
2019	-0.000735315
2018	-0.000804308
2017	-0.00132706
2016	-0.00123146
2015	-0.001470058
2014	-0.001564419
2013	-0.001692023
2012	-0.001561427
2011	-0.00164602
2010	-0.001895061
2009	-0.001990875
2008	-0.002051734
2007	-0.002401674
2006	-0.002389832
2005	-0.002292355
2004	-0.001860833
2003	-0.001954851
2002	-0.001851966
2001	-0.001359782
2000	-0.001029196
1999	-0.001699192
1998	-0.001182258
1997	-0.00146495
1996	-0.001621263
1995	-0.001401119
1994	-0.001075059
1993	-0.001351937
1992	-0.00169718
1991	-0.001692127
1990	-0.001443692
1989	-0.001789017
1988	-0.001879442
1987	-0.001891762
1986	-0.001939904
1985	-0.001980362
1984	-0.002107381
1983	-0.00202329
1982	-0.002059567
1981	-0.001985052
1980	-0.001763185
1979	-0.001928204
1978	-0.002100065
1977	-0.001987217
1976	-0.000899692
1975	-0.001854234
1974	-0.002140405
1973	-0.00201185
1972	-0.001707598
1971	-0.001417426
1970	-0.001551316
1969	-0.001570919
1968	-0.001242663
1967	-0.001475992
1966	-0.001716003
1965	-0.00159181
1964	-0.001789223
1963	-0.001757049
1962	-0.001853461
1961	-0.001774838
1960	-0.00184212
1959	-0.001966602
1958	-0.001969642
1957	-0.001828819
1956	-0.001812888
1955	-0.001864648
1954	-0.001750036
1953	-0.001592739
1952	-0.0016814
1951	-0.001682792
1950	-0.001518608
1949	-0.001363239
1948	-0.001436158
1947	-0.001289844
1946	-0.001163103
1945	-0.001171983
1944	-0.001216333
1943	-0.001095819
1942	-0.00105626
1941	-0.00114565
1940	-0.001311782
1939	-0.001264344
1938	-0.001262021
1937	-0.001325253
1936	-0.00139054
1935	-0.001182775
1934	-0.001127474
1933	-0.001298929
1932	-0.001154067
1931	-0.000986222
1930	-0.000957036
1929	-0.000982193
1928	-0.000803223
1927	-0.000622577
1926	-0.000570152
1925	-0.000315384
1924	-0.000194412
1923	-0.000218216
1922	1.27E-05
1921	0.000124037
1920	0.00010164
1919	0.000131158
1918	8.72E-05
1917	8.15E-05
1916	7.45E-05
1915	3.30E-05
1914	0.000163294
1913	7.51E-05
1912	-3.59E-05
1911	6.68E-06
1910	-8.61E-05
1909	-2.89E-05
1908	0.000134265
1907	0.000208639
1906	1.21E-05
1905	0.000189941
1904	0.00013323
1903	0.000255958
1902	0.000166297
1901	0.00029274
1900	0.000464902
1899	0.000464954
1898	0.000235264
1897	0.000241117
1896	0.000389189
1895	0.000368462
1894	0.000257901
1893	0.000409036
1892	0.000345068
1891	4.41E-05
1890	-0.000165794
1889	-0.000203157
1888	-0.00023079
1887	-0.000348751
1886	-0.000448941
1885	-0.000364425
1884	-0.000296086
1883	-0.000515291
1882	-0.000440614
1881	-0.000133448
1880	-0.000201967
1879	-0.000229444
1878	0.000126394
1877	0.000349938
1876	0.000214078
1875	0.000419763
1874	0.000452567
1873	0.000445493
1872	0.000205324
1871	2.77E-05
1870	2.52E-05
1869	-0.000193998
1868	-0.000377874
1867	-0.000577908
1866	-0.000453596
1865	-0.000587421
1864	-0.000573616
1863	-0.000504897
1862	-0.000476765
1861	-0.000310469
1860	-0.000298777
1859	-0.000192652
1858	-0.000102393
1857	8.96E-06
1856	0.000203123
1855	0.000317012
1854	0.000292429
1853	0.000420592
1852	0.000458164
1851	0.000468089
1850	0.000382375
1849	0.000332399
1848	0.000199342
1847	-0.000182665
1846	-0.000313935
1845	-0.000273684
1844	-0.000355993
1843	-0.000365977
1842	-0.000334887
1841	-0.000373064
1840	-0.000160826
1839	-0.00020057
1838	-2.85E-05
1837	1.74E-05
1836	0.000106922
1835	0.000239667
1834	0.00041471
1833	0.000320068
1832	0.000455573
1831	0.000551566
1830	0.000398568
1829	0.000443601
1828	0.00029432
1827	0.000388904
1826	0.000196985
1825	-3.08E-05
1824	-0.000122993
1823	-0.000212317
1822	-0.000357183
1821	-0.000440252
1820	-0.000269855
1819	-0.000226805
1818	-0.000170089
1817	-1.87E-05
1816	0.000341311
1815	0.000307246
1814	0.002240739
1813	0.000559834
1812	0.000452671
1811	0.000680972
1810	0.000513389
1809	0.000705448
1808	0.000693573
1807	0.000586402
1806	0.000485115
1805	0.000204677
1804	5.57E-05
1803	-0.000132723
1802	-0.00010348
1801	-2.66E-05
1800	-0.000222355
1799	-0.000300018
1798	0.000222702
1797	0.000106586
1796	2.39E-05
1795	0.000201958
1794	0.000260361
1793	0.000313851
1792	0.000517769
1791	0.000654191
1790	0.000898239
1789	0.000660076
1788	0.000811817
1787	0.000682787
1786	0.00075072
1785	0.000493175
1784	0.000455754
1783	-2.64E-06
1782	-3.54E-05
1781	-0.000151458
1780	-0.000180284
1779	-7.71E-05
1778	-4.02E-05
1777	0.000207992
1776	-5.26E-05
1775	0.000293983
1774	0.000621215
1773	0.000688802
1772	0.000760367
1771	0.000741204
1770	0.000801625
1769	0.000778519
1768	0.000816538
1767	0.000761974
1766	0.000670887
1765	0.000621241
1764	0.00033214
1763	0.00042821
1762	0.000139677
1761	-0.000175989
1760	0.000182897
1759	0.000380017
1758	0.000414425
1757	0.000227727
1756	0.000323099
1755	0.000844133
1754	0.000536196
1753	0.000868177
1752	0.000914841
1751	0.000746831
1750	0.000897565
1749	0.000863456
1748	0.001254614
1747	0.000930899
1746	0.000327037
1745	0.000485867
1744	0.000440466
1743	0.000513156
1742	0.000208717
1741	0.000333099
1740	0.000271473
1739	0.000368643
1738	0.000467726
1737	0.000629096
1736	0.000783576
1735	0.000704177
1734	0.000905658
1733	0.001179827
1732	0.001266452
1731	0.001161814
1730	0.001245605
1729	0.001337878
1728	0.000977933
1727	0.000827404
1726	0.000887604
1725	0.000912091
1724	0.000589072
1723	0.000595034
1722	0.000607736
1721	0.000605066
1720	0.000641928
1719	0.000631766
1718	0.00101065
1717	0.001045212
1716	0.001107363
1715	0.001378906
1714	0.00134598
1713	0.001433417
1712	0.001542511
1711	0.001403187
1710	0.001473155
1709	0.001273462
1708	0.001101238
1707	0.001137157
1706	0.000995109
1705	0.000845222
1704	0.000868981
1703	0.000759796
1702	0.000835081
1701	0.000932844
1700	0.000979204
1699	0.001157427
1698	0.001325337
1697	0.001512715
1696	0.001675149
1695	0.001699109
1694	0.001712415
1693	0.001773934
1692	0.001812897
1691	0.001719146
1690	0.001642902
1689	0.001448429
1688	0.001242049
1687	0.001163734
1686	0.001140583
1685	0.001138584
1684	0.001073211
1683	0.001199788
1682	0.001236364
1681	0.001461857
1680	0.001546642
1679	0.001896997
1678	0.001843805
1677	0.002116382
1676	0.002076533
1675	0.002185451
1674	0.001989954
1673	0.001678138
1672	0.001881007
1671	0.001729516
1670	0.001490116
1669	0.001419107
1668	0.001479155
1667	0.001313237
1666	0.001324818
1665	0.001725071
1664	0.001972271
1663	0.001891381
1662	0.001820851
1661	0.002172052
1660	0.002183525
1659	0.002113885
1658	0.002273395
1657	0.002378276
1656	0.002286016
1655	0.002051096
1654	0.001960648
1653	0.002014087
1652	0.001569243
1651	0.001649502
1650	0.001694016
1649	0.001662676
1648	0.001598056
1647	0.001840322
1646	0.002125591
1645	0.002278079
1644	0.002419897
1643	0.002455066
1642	0.002702161
1641	0.002744907
1640	0.002657674
1639	0.002605353
1638	0.002540514
1637	0.002199448
1636	0.002292964
1635	0.002162999
1634	0.002129389
1633	0.002138441
1632	0.00227683
1631	0.002229004
1630	0.002270923
1629	0.002489587
1628	0.002640172
1627	0.002533041
1626	0.002816264
1625	0.003043335
1624	0.003003322
1623	0.003096934
1622	0.003053397
1621	0.002888988
1620	0.002836951
1619	0.002600561
1618	0.002593399
1617	0.002671425
1616	0.002559105
1615	0.002423359
1614	0.00272042
1613	0.002684318
1612	0.002900089
1611	0.003075035
1610	0.003339047
1609	0.003352324
1608	0.003307275
1607	0.003520433
1606	0.003502165
1605	0.003302424
1604	0.003304145
1603	0.003114845
1602	0.003084368
1601	0.003043778
1600	0.003156485
1599	0.003032882
1598	0.002976059
1597	0.002863477
1596	0.003300624
1595	0.003438445
1594	0.003478654
1593	0.003606482
1592	0.003860501
1591	0.00402716
1590	0.003938781
1589	0.003816522
1588	0.003960123
1587	0.003798764
1586	0.003483716
1585	0.003545512
1584	0.003519911
1583	0.00349893
1582	0.003415354
1581	0.003633263
1580	0.003733225
1579	0.003755392
1578	0.003894376
1577	0.004164506
1576	0.004496892
1575	0.004561762
1574	0.00446718
1573	0.004348067
1572	0.004354185
1571	0.004263413
1570	0.00432315
1569	0.004020968
1568	0.003951581
1567	0.003829527
1566	0.003964303
1565	0.004192838
1564	0.004134242
1563	0.004438412
1562	0.004749731
1561	0.004951973
1560	0.004885997
1559	0.005029664
1558	0.005095923
1557	0.005063735
1556	0.004978497
1555	0.004864505
1554	0.004887542
1553	0.004648568
1552	0.004590224
1551	0.004438229
1550	0.004426043
1549	0.004851547
1548	0.004991223
1547	0.005060462
1546	0.005336035
1545	0.005514403
1544	0.005741683
1543	0.005281792
1542	0.005623741
1541	0.005639527
1540	0.005514744
1539	0.005299663
1538	0.005326391
1537	0.005330899
1536	0.005311612
1535	0.005313891
1534	0.00545036
1533	0.005555985
1532	0.005687259
1531	0.00603244
1530	0.006210097
1529	0.006133455
1528	0.006236147
1527	0.006433328
1526	0.006101006
1525	0.006061603
1524	0.00618019
1523	0.006183787
1522	0.005807606
1521	0.005841344
1520	0.006209414
1519	0.006179376
1518	0.006237145
1517	0.006374377
1516	0.006741506
1515	0.006971928
1514	0.006836453
1513	0.006970692
1512	0.007041721
1511	0.006989132
1510	0.006976111
1509	0.006889549
1508	0.006627103
1507	0.006468219
1506	0.006754573
1505	0.006749052
1504	0.006857044
1503	0.007082844
1502	0.007224055
1501	0.007811049
1500	0.007957005
1499	0.007796474
1498	0.007877206
1497	0.007860336
1496	0.007693465
1495	0.007490786
1494	0.007616692
1493	0.007578759
1492	0.007365312
1491	0.007455655
1490	0.007979205
1489	0.008100822
1488	0.008193613
1487	0.00842866
1486	0.008507372
1485	0.008670437
1484	0.008835017
1483	0.008933223
1482	0.00867667
1481	0.008887697
1480	0.00875194
1479	0.008424887
1478	0.008289959
1477	0.008502964
1476	0.008693413
1475	0.008914357
1474	0.009156086
1473	0.009403771
1472	0.009575615
1471	0.009754277
1470	0.009800265
1469	0.009821261
1468	0.009719889
1467	0.009738975
1466	0.009771062
1465	0.00979076
1464	0.009645192
1463	0.009718512
1462	0.009764602
1461	0.010151197
1460	0.010295662
1459	0.010526706
1458	0.010805771
1457	0.010986002
1456	0.010978515
1455	0.011086343
1454	0.011201687
1453	0.011030234
1452	0.010987408
1451	0.010913927
1450	0.011066427
1449	0.011070808
1448	0.011303221
1447	0.011720813
1446	0.011878864
1445	0.011927099
1444	0.012230016
1443	0.012420801
1442	0.01243388
1441	0.012547906
1440	0.01264986
1439	0.012430124
1438	0.012485161
1437	0.012545721
1436	0.012781057
1435	0.012689305
1434	0.012866187
1433	0.013264202
1432	0.0137594
1431	0.013903627
1430	0.013971549
1429	0.014173612
1428	0.01418431
1427	0.014408682
1426	0.013831949
1425	0.014042021
1424	0.01419121
1423	0.014352223
1422	0.014504329
1421	0.014876363
1420	0.014988325
1419	0.015153279
1418	0.015220645
1417	0.015296576
1416	0.015639957
1415	0.015501805
1414	0.015840542
1413	0.015375791
1412	0.015549424
1411	0.015824139
1410	0.016063863
1409	0.016177449
1408	0.016493106
1407	0.016667133
1406	0.016677354
1405	0.016896235
1404	0.016924523
1403	0.017273422
1402	0.017222784
1401	0.017013915
1400	0.017103542
1399	0.016976094
1398	0.017109761
1397	0.01755826
1396	0.01783298
1395	0.018095218
1394	0.018437849
1393	0.018698938
1392	0.018731991
1391	0.018811457
1390	0.018924655
1389	0.01895256
1388	0.018878555
1387	0.018604767
1386	0.018940635
1385	0.019167181
1384	0.019355301
1383	0.019510848
1382	0.019767843
1381	0.019997802
1380	0.020290697
1379	0.02067641
1378	0.020799572
1377	0.020634197
1376	0.020615576
1375	0.02087184
1374	0.020757455
1373	0.02063949
1372	0.021109505
1371	0.021313421
1370	0.021696316
1369	0.021883301
1368	0.022358917
1367	0.022584962
1366	0.022215532
1365	0.022425529
1364	0.022633174
1363	0.022869349
1362	0.022810906
1361	0.022704629
1360	0.023032492
1359	0.023425622
1358	0.023467479
1357	0.023749519
1356	0.024158923
1355	0.024377339
1354	0.024460116
1353	0.024353791
1352	0.024536394
1351	0.02451692
1350	0.024655011
1349	0.025023671
1348	0.02524562
1347	0.025471088
1346	0.025815716
1345	0.026130844
1344	0.026481528
1343	0.026603265
1342	0.026646364
1341	0.026790751
1340	0.02678775
1339	0.026808318
1338	0.026889965
1337	0.027221031
1336	0.02729512
1335	0.027767099
1334	0.028415376
1333	0.028607132
1332	0.028544817
1331	0.028992143
1330	0.029104315
1329	0.029031051
1328	0.029058563
1327	0.029205719
1326	0.02912098
1325	0.029555265
1324	0.029888786
1323	0.030275019
1322	0.030675707
1321	0.031146759
1320	0.031218376
1319	0.031371444
1318	0.031578567
1317	0.031380709
1316	0.031386748
1315	0.031673394
1314	0.03196165
1313	0.032384537
1312	0.03279103
1311	0.033077374
1310	0.033279419
1309	0.033502888
1308	0.033715282
1307	0.033899263
1306	0.033953309
1305	0.03399149
1304	0.034191102
1303	0.034145117
1302	0.034746345
1301	0.035128307
1300	0.035652321
1299	0.035903528
1298	0.036159806
1297	0.036309615
1296	0.036407225
1295	0.036324136
1294	0.036730222
1293	0.036671095
1292	0.037052274
1291	0.037407346
1290	0.037981298
1289	0.038116958
1288	0.038485914
1287	0.039057583
1286	0.038960308
1285	0.039048862
1284	0.039252963
1283	0.039423484
1282	0.039498154
1281	0.039658707
1280	0.040227007
1279	0.040715706
1278	0.04098798
1277	0.041409586
1276	0.041876327
1275	0.041920654
1274	0.041884907
1273	0.0421082
1272	0.042196654
1271	0.042445797
1270	0.042657129
1269	0.043316882
1268	0.04381394
1267	0.043899789
1266	0.044277392
1265	0.044654895
1264	0.044564564
1263	0.04473592
1262	0.04478858
1261	0.045301601
1260	0.045884505
1259	0.046066921
1258	0.04652331
1257	0.046963129
1256	0.047317024
1255	0.047114436
1254	0.047525715
1253	0.047771577
1252	0.047873911
1251	0.048126247
1250	0.048272833
1249	0.048924956
1248	0.049385317
1247	0.049759042
1246	0.050317734
1245	0.050192274
1244	0.05049504
1243	0.050777651
1242	0.050771747
1241	0.051191863
1240	0.05166997
1239	0.052172888
1238	0.052472454
1237	0.052910775
1236	0.053177055
1235	0.053491455
1234	0.053596579
1233	0.053841479
1232	0.054033425
1231	0.054275934
1230	0.054861732
1229	0.055402037
1228	0.055862516
1227	0.056208417
1226	0.056443181
1225	0.056622479
1224	0.056768011
1223	0.057053491
1222	0.05745988
1221	0.057819773
1220	0.058014076
1219	0.058675874
1218	0.059260584
1217	0.059544295
1216	0.059677742
1215	0.060110614
1214	0.060331494
1213	0.060418416
1212	0.060792588
1211	0.061582085
1210	0.061926544
1209	0.062305458
1208	0.06270501
1207	0.06309253
1206	0.063293912
1205	0.063488521
1204	0.063712507
1203	0.064065799
1202	0.064421818
1201	0.065001838
1200	0.06551858
1199	0.06604781
1198	0.066418208
1197	0.066610031
1196	0.066932864
1195	0.066937029
1194	0.067171112
1193	0.067537539
1192	0.068169229
1191	0.068590187
1190	0.069071554
1189	0.069612637
1188	0.07026156
1187	0.070180684
1186	0.070159815
1185	0.070460178
1184	0.070893511
1183	0.071502052
1182	0.072154582
1181	0.072681621
1180	0.073192202
1179	0.073277324
1178	0.073430814
1177	0.073652931
1176	0.074015267
1175	0.074450135
1174	0.074929923
1173	0.075186022
1172	0.076002546
1171	0.076376691
1170	0.076876134
1169	0.07690005
1168	0.077214971
1167	0.077272803
1166	0.077933751
1165	0.078324601
1164	0.078974426
1163	0.07951811
1162	0.07969936
1161	0.080270797
1160	0.080459677
1159	0.080489092
1158	0.080517598
1157	0.081185564
1156	0.082034819
1155	0.082638018
1154	0.082972519
1153	0.083361693
1152	0.083787069
1151	0.083960496
1150	0.084095158
1149	0.084500775
1148	0.084997185
1147	0.08541134
1146	0.085932799
1145	0.086544693
1144	0.086868972
1143	0.086964592
1142	0.087216496
1141	0.087678067
1140	0.087970227
1139	0.088270672
1138	0.089010321
1137	0.089840166
1136	0.090008631
1135	0.090020575
1134	0.090411372
1133	0.090953998
1132	0.090967089
1131	0.091709517
1130	0.09236449
1129	0.092647545
1128	0.092917189
1127	0.093571477
1126	0.09379521
1125	0.094007619
1124	0.094261162
1123	0.095018215
1122	0.095481224
1121	0.095900461
1120	0.09612456
1119	0.096740872
1118	0.096965343
1117	0.097157031
1116	0.097471386
1115	0.098071575
1114	0.098584719
1113	0.09903796
1112	0.099361554
1111	0.099710137
1110	0.100011677
1109	0.100162365
1108	0.100666046
1107	0.101176813
1106	0.101764709
1105	0.102211356
1104	0.10260921
1103	0.10284175
1102	0.10305883
1101	0.103550963
1100	0.103781082
1099	0.104461402
1098	0.104937561
1097	0.105375439
1096	0.105655223
1095	0.106020495
1094	0.10623993
1093	0.10656821
1092	0.106960148
1091	0.107633427
1090	0.107915171
1089	0.10836862
1088	0.1087173
1087	0.109105758
1086	0.109235428
1085	0.109600663
1084	0.110133499
1083	0.110757068
1082	0.111220382
1081	0.111495525
1080	0.111659259
1079	0.111974947
1078	0.111944594
1077	0.112362206
1076	0.112861782
1075	0.113727152
1074	0.114138
1073	0.1143931
1072	0.114570998
1071	0.114765629
1070	0.115318038
1069	0.115770839
1068	0.116258554
1067	0.116699025
1066	0.116812259
1065	0.117205076
1064	0.117308945
1063	0.11750748
1062	0.118028298
1061	0.118833862
1060	0.119287789
1059	0.11930377
1058	0.119448453
1057	0.119642004
1056	0.119825006
1055	0.11993479
1054	0.120555073
1053	0.12094377
1052	0.121327445
1051	0.121606879
1050	0.121907219
1049	0.122096732
1048	0.122249521
1047	0.122869551
1046	0.123618625
1045	0.123867273
1044	0.123726964
1043	0.123850957
1042	0.124089025
1041	0.124413192
1040	0.124651462
1039	0.125287399
1038	0.125874922
1037	0.125739738
1036	0.125647724
1035	0.125977144
1034	0.12639676
1033	0.12688911
1032	0.12727873
1031	0.127810687
1030	0.127656728
1029	0.12815617
1028	0.12804085
1027	0.128330484
1026	0.128781468
1025	0.128842652
1024	0.129370302
1023	0.129427806
1022	0.129398167
1021	0.129566029
1020	0.130053148
1019	0.130293801
1018	0.13064985
1017	0.130665764
1016	0.130635649
1015	0.130972579
1014	0.131329075
1013	0.131562471
1012	0.131896228
1011	0.132179573
1010	0.132118434
1009	0.132044196
1008	0.132175595
1007	0.132587463
1006	0.132755891
1005	0.133041441
1004	0.133359164
1003	0.13341561
1002	0.133321539
1001	0.13347967
1000	0.133852735
999	0.134076655
998	0.134211779
997	0.134089097
996	0.134323105
995	0.134222612
994	0.134594262
993	0.134973273
992	0.135168582
991	0.135186493
990	0.135056615
989	0.135219604
988	0.135466501
987	0.135593578
986	0.13568984
985	0.135944709
984	0.135966867
983	0.135727733
982	0.135791168
981	0.136162654
980	0.136314198
979	0.136284307
978	0.136243805
977	0.136317536
976	0.136282072
975	0.136240482
974	0.136588529
973	0.136722446
972	0.136534467
971	0.136456832
970	0.136528716
969	0.136644721
968	0.136700392
967	0.136659503
966	0.136661425
965	0.136358634
964	0.136462569
963	0.136562437
962	0.136801332
961	0.136813745
960	0.136773124
959	0.136456415
958	0.136254579
957	0.136373475
956	0.136578068
955	0.136646286
954	0.136541084
953	0.13627325
952	0.136156037
951	0.136207178
950	0.136289433
949	0.136082515
948	0.135802493
947	0.135729358
946	0.135579467
945	0.135588199
944	0.135530934
943	0.135473296
942	0.135278463
941	0.135170952
940	0.135141164
939	0.134929627
938	0.134890601
937	0.134702057
936	0.134420425
935	0.134270951
934	0.134247288
933	0.133975849
932	0.133793593
931	0.133859605
930	0.133741602
929	0.133196443
928	0.132672653
927	0.132898733
926	0.132887483
925	0.1321861
924	0.13215971
923	0.132170096
922	0.132006437
921	0.131674558
920	0.131456509
919	0.131163076
918	0.13101317
917	0.130744904
916	0.130630717
915	0.130564168
914	0.130026087
913	0.130110636
912	0.12965779
911	0.129450515
910	0.12909852
909	0.128745973
908	0.128538504
907	0.12829563
906	0.127804816
905	0.127525494
904	0.127445951
903	0.127089202
902	0.126559705
901	0.126361579
900	0.126169056
899	0.125804499
898	0.125413925
897	0.125100195
896	0.124943882
895	0.124589793
894	0.124142833
893	0.123746723
892	0.123272121
891	0.122856736
890	0.12246979
889	0.122169741
888	0.121686071
887	0.121242292
886	0.121000238
885	0.120592699
884	0.120256789
883	0.119723707
882	0.119491398
881	0.119086392
880	0.118633486
879	0.118279137
878	0.117828704
877	0.11727225
876	0.116834037
875	0.116234131
874	0.115817815
873	0.115716197
872	0.115320638
871	0.114671908
870	0.114125773
869	0.113595225
868	0.113378398
867	0.112644047
866	0.111727819
865	0.111703746
864	0.111303464
863	0.110681176
862	0.110378414
861	0.109980807
860	0.109509654
859	0.108701974
858	0.108477704
857	0.108084694
856	0.107358903
855	0.106614925
854	0.106339581
853	0.106076971
852	0.105290718
851	0.104773872
850	0.104518697
849	0.103976987
848	0.103463344
847	0.102836862
846	0.102478385
845	0.101862751
844	0.101215668
843	0.100779057
842	0.100400254
841	0.099894993
840	0.099188797
839	0.098788306
838	0.098250926
837	0.097539909
836	0.097034797
835	0.09658432
834	0.095920831
833	0.095171399
832	0.094895899
831	0.09417852
830	0.093505017
829	0.093071692
828	0.092428274
827	0.09183564
826	0.091323435
825	0.091014326
824	0.090603694
823	0.089944817
822	0.089315809
821	0.088922597
820	0.088385545
819	0.087615766
818	0.086933322
817	0.086506464
816	0.086018018
815	0.085272484
814	0.084729798
813	0.084408961
812	0.083911002
811	0.083197758
810	0.082715705
809	0.082093887
808	0.081353582
807	0.081005849
806	0.080666095
805	0.08000686
804	0.079312019
803	0.078636594
802	0.078231022
801	0.077711634
800	0.077275559
799	0.075973004
798	0.075833127
797	0.074818768
796	0.074159287
795	0.073948421
794	0.073386274
793	0.072755039
792	0.071990266
791	0.071641393
790	0.071159005
789	0.070510536
788	0.06933029
787	0.069253072
786	0.068905242
785	0.068201549
784	0.067517072
783	0.067173198
782	0.066471696
781	0.06580656
780	0.065173574
779	0.065069638
778	0.064487696
777	0.063803136
776	0.062954202
775	0.062805086
774	0.06221813
773	0.06145357
772	0.060762368
771	0.060368914
770	0.060092244
769	0.059570931
768	0.058920454
767	0.058598369
766	0.057994727
765	0.057339255
764	0.056916717
763	0.056420159
762	0.055678822
761	0.055042319
760	0.054674707
759	0.054243494
758	0.053581439
757	0.053001691
756	0.052613679
755	0.051978905
754	0.05147624
753	0.050995726
752	0.050602466
751	0.050031558
750	0.049612734
749	0.04917454
748	0.04862994
747	0.047945537
746	0.047488116
745	0.047122251
744	0.046372067
743	0.045852829
742	0.045625675
741	0.045275196
740	0.044655584
739	0.044056449
738	0.043936308
737	0.043304529
736	0.042821512
735	0.042381864
734	0.042076685
733	0.041374363
732	0.040681932
731	0.04086991
730	0.039852086
729	0.039611656
728	0.039487809
727	0.03911205
726	0.038207032
725	0.03783752
724	0.037586886
723	0.036939438
722	0.03652896
721	0.036193822
720	0.035715494
719	0.035104055
718	0.034920491
717	0.034675065
716	0.033685852
715	0.033784807
714	0.033687588
713	0.032956127
712	0.032341395
711	0.032158352
710	0.031890552
709	0.031179104
708	0.030899508
707	0.030568987
706	0.029946499
705	0.029737851
704	0.029686015
703	0.02891721
702	0.028702363
701	0.028585428
700	0.028161336
699	0.027577011
698	0.027491098
697	0.026774591
696	0.026610365
695	0.026268268
694	0.025778797
693	0.025751218
692	0.025557507
691	0.024726991
690	0.02451922
689	0.024433143
688	0.024140971
687	0.023479637
686	0.023798654
685	0.023565497
684	0.022717258
683	0.022371862
682	0.021739312
681	0.022120895
680	0.021664942
679	0.021318533
678	0.020738421
677	0.020691885
676	0.020052884
675	0.020209279
674	0.020073568
673	0.019735903
672	0.019175703
671	0.018946232
670	0.018687155
669	0.01828409
668	0.018244753
667	0.01776127
666	0.017686849
665	0.017223431
664	0.01646138
663	0.016328665
662	0.016631601
661	0.016420219
660	0.016827237
659	0.016621945
658	0.015844919
657	0.015483992
656	0.015277565
655	0.015129851
654	0.015033771
653	0.01457984
652	0.014242485
651	0.014156495
650	0.013895823
649	0.013678128
648	0.013548156
647	0.013137901
646	0.013104845
645	0.012866027
644	0.012751945
643	0.012766208
642	0.012148151
641	0.01230894
640	0.012237578
639	0.011838322
638	0.011534481
637	0.011203388
636	0.011333244
635	0.011319268
634	0.010976843
633	0.010796668
632	0.010507531
631	0.01015231
630	0.010268123
629	0.010106126
628	0.009906343
627	0.0098877
626	0.009655302
625	0.009654588
624	0.009445886
623	0.009214359
622	0.009236914
621	0.008810475
620	0.008731523
619	0.00839786
618	0.008435206
617	0.008296556
616	0.008384084
615	0.00826529
614	0.008015565
613	0.007944798
612	0.007849688
611	0.007743557
610	0.00748918
609	0.007434562
608	0.007509327
607	0.007190946
606	0.007049193
605	0.006999444
604	0.007059243
603	0.006891706
602	0.006620269
601	0.006738824
600	0.006430858
599	0.006659723
598	0.006681961
597	0.006679254
596	0.006351445
595	0.006173284
594	0.006195813
593	0.00587443
592	0.005810675
591	0.005806084
590	0.006003122
589	0.005645192
588	0.005514325
587	0.005212465
586	0.005569724
585	0.005550453
584	0.00554437
583	0.005185508
582	0.005203715
581	0.005428893
580	0.005427399
579	0.005501793
578	0.005326758
577	0.005035609
576	0.00504048
575	0.005012695
574	0.004974176
573	0.00477763
572	0.004673869
571	0.004820058
570	0.004660787
569	0.004528437
568	0.00471367
567	0.004708488
566	0.004642811
565	0.004657673
564	0.004675544
563	0.00448133
562	0.004369011
561	0.004342001
560	0.004217119
559	0.004255623
558	0.004484678
557	0.004401122
556	0.004540181
555	0.004376672
554	0.004237012
553	0.004449475
552	0.004357219
551	0.004285529
550	0.004304771
549	0.004319621
548	0.004177809
547	0.00421691
546	0.004349636
545	0.004188237
544	0.004006885
543	0.004231208
542	0.004148616
541	0.003948237
540	0.003954428
539	0.004295202
538	0.004172712
537	0.004110357
536	0.00409115
535	0.004209827
534	0.004407763
533	0.004219916
532	0.0041154
531	0.00441472
530	0.00434242
529	0.004268328
528	0.004139338
527	0.004428135
526	0.004440923
525	0.004408208
524	0.004557812
523	0.004633863
522	0.004579682
521	0.004559487
520	0.004674524
519	0.004627663
518	0.004199163
517	0.004417518
516	0.004534165
515	0.004704197
514	0.004505131
513	0.004437288
512	0.004695535
511	0.004709038
510	0.00460948
509	0.004584548
508	0.004962289
507	0.004859086
506	0.004900631
505	0.004562913
504	0.005063474
503	0.005101031
502	0.005007274
501	0.005058366
500	0.005033147
499	0.005176994
498	0.005054307
497	0.00516235
496	0.004988735
495	0.00505724
494	0.004815529
493	0.005165074
492	0.005248463
491	0.005372856
490	0.005476181
489	0.005544449
488	0.005603786
487	0.005412092
486	0.005337476
485	0.005409916
484	0.005410388
483	0.005400061
482	0.005757737
481	0.005648208
480	0.005517051
479	0.00547993
478	0.005441973
477	0.005589416
476	0.005655367
475	0.005560259
474	0.00531059
473	0.005421396
472	0.005817863
471	0.005996902
470	0.006085071
469	0.006111638
468	0.005818677
467	0.005724319
466	0.00595079
465	0.005929665
464	0.005918907
463	0.005932893
462	0.006076119
461	0.005975355
460	0.005911979
459	0.006014986
458	0.005893427
457	0.006199883
456	0.006088615
455	0.006261148
454	0.00628305
453	0.006020603
452	0.005844598
451	0.006206684
450	0.006196627
449	0.00590471
448	0.006253636
447	0.006745634
446	0.006407634
445	0.006430596
444	0.006493864
443	0.006351734
442	0.006447988
441	0.006549835
440	0.006702492
439	0.006722603
438	0.006643715
437	0.006578506
436	0.006866248
435	0.006931079
434	0.006805555
433	0.006904725
432	0.006987554
431	0.006685116
430	0.006878214
429	0.006798903
428	0.006786834
427	0.006819913
426	0.006757728
425	0.00721429
424	0.007457393
423	0.007117576
422	0.006934498
421	0.007553814
420	0.00769776
419	0.007451705
418	0.007368972
417	0.007311578
416	0.007305234
415	0.007439749
414	0.007478724
413	0.007802958
412	0.008248194
411	0.007695204
410	0.007810548
409	0.008098
408	0.008258984
407	0.008142045
406	0.007998294
405	0.008351889
404	0.008410476
403	0.00837213
402	0.008368804
401	0.008645694
400	0.008689716
399	0.008873245
398	0.008897341
397	0.00910985
396	0.009222317
395	0.009264256
394	0.009332726
393	0.009559446
392	0.009652602
391	0.009888574
390	0.010092428
389	0.010621211
388	0.010458313
387	0.010353054
386	0.010850701
385	0.011377273
384	0.011396672
383	0.011919171
382	0.012162819
381	0.012403168
380	0.012416965
379	0.012773405
378	0.013513385
377	0.013934527
376	0.014030097
375	0.014771822
374	0.015474684
373	0.015499658
372	0.015801106
371	0.016228233
370	0.017230218
369	0.017931003
368	0.018348433
367	0.018967703
366	0.019536246
365	0.019575508
364	0.020643834
363	0.021962967
362	0.022121113
361	0.022517942
360	0.023162086
359	0.023103304
358	0.023969779
357	0.025248913
356	0.025741166
355	0.027615463
354	0.028113915
353	0.028785003
352	0.029072456
351	0.029803248
350	0.030284761
349	0.031430632
348	0.031940673
347	0.031839658
346	0.033234786
345	0.034094825
344	0.03465718
343	0.035507876
342	0.03672915
341	0.037112042
340	0.037511133
339	0.038752917
338	0.039676942
337	0.040537428
336	0.041931205
335	0.042637683
334	0.043848787
333	0.044946905
332	0.046553709
331	0.047613833
330	0.04890598
329	0.0503718
328	0.051893193
327	0.053523548
326	0.05520384
325	0.057193439
324	0.058838312
323	0.061156329
322	0.063603051
321	0.06586536
320	0.068356887
319	0.071305193
318	0.074079521
317	0.077012323
316	0.080163091
315	0.083032437
314	0.086312823
313	0.08926665
312	0.092359394
311	0.095015116
310	0.098328188
309	0.100927495
308	0.103395216
307	0.105428666
306	0.107686237
305	0.10898713
304	0.110683546
303	0.111336142
302	0.111746334
301	0.111921914
300	0.111954808
299	0.111727081
298	0.111269578
297	0.110482723
296	0.109729819
295	0.109185398
294	0.108622648
293	0.107745215
292	0.107464418
291	0.107014492
290	0.10660176
289	0.106437244
288	0.106509455
287	0.106507801
286	0.107012108
285	0.107604906
284	0.108379252
283	0.10913118
282	0.110534042
281	0.111642353
280	0.113118686
279	0.114672415
278	0.11644128
277	0.118220955
276	0.12049187
275	0.122649387
274	0.125014648
273	0.127507448
272	0.129899129
271	0.132569686
270	0.13501358
269	0.137654558
268	0.140430272
267	0.143280596
266	0.146392912
265	0.149438441
264	0.152893871
263	0.156490639
262	0.160086915
261	0.164034411
260	0.167987198
259	0.1723236
258	0.176419392
257	0.181098491
256	0.186353475
255	0.191460922
254	0.197241813
253	0.203535438
252	0.210375503
251	0.217827261
250	0.225914896
